$NAME RAMANEWS.NS
# Date,Open,High,Low,Close,Adj Close,Volume
29-01-2024,18.850000,19.350000,18.350000,18.549999,18.549999,473863
30-01-2024,18.799999,19.900000,18.100000,19.299999,19.299999,881136
31-01-2024,19.299999,19.799999,18.850000,18.950001,18.950001,461047
01-02-2024,19.250000,19.400000,18.500000,18.650000,18.650000,328657
02-02-2024,18.850000,19.200001,18.400000,18.500000,18.500000,312814
05-02-2024,18.700001,19.350000,18.000000,18.150000,18.150000,255041
06-02-2024,18.450001,21.750000,18.000000,21.750000,21.750000,4434228
07-02-2024,21.900000,24.350000,20.500000,23.049999,23.049999,6061557
08-02-2024,23.700001,23.900000,22.400000,23.350000,23.350000,1453883
09-02-2024,24.000000,24.000000,21.000000,21.950001,21.950001,1023722
12-02-2024,22.000000,22.400000,19.299999,19.650000,19.650000,702268
13-02-2024,19.049999,20.150000,18.700001,19.250000,19.250000,471798
14-02-2024,18.850000,20.400000,18.850000,20.250000,20.250000,410323
15-02-2024,20.850000,21.200001,20.450001,20.700001,20.700001,326424
16-02-2024,21.049999,21.700001,20.850000,21.250000,21.250000,374675
19-02-2024,21.650000,21.650000,20.600000,20.700001,20.700001,221074
20-02-2024,20.700001,21.150000,20.000000,20.150000,20.150000,259170
21-02-2024,20.250000,21.000000,19.450001,19.700001,19.700001,426046
22-02-2024,19.900000,20.850000,19.200001,20.350000,20.350000,471362
23-02-2024,20.500000,20.700001,19.799999,19.900000,19.900000,205478
26-02-2024,20.000000,20.100000,19.000000,19.200001,19.200001,349526
27-02-2024,19.350000,19.950001,18.549999,18.900000,18.900000,351210
28-02-2024,19.000000,19.299999,17.900000,18.299999,18.299999,353315
29-02-2024,18.299999,18.500000,17.950001,18.350000,18.350000,104803
01-03-2024,18.549999,19.350000,18.299999,19.150000,19.150000,375337
04-03-2024,19.299999,20.500000,18.600000,19.600000,19.600000,1032288
05-03-2024,19.600000,20.700001,19.150000,19.400000,19.400000,430469
06-03-2024,19.500000,19.600000,18.350000,18.850000,18.850000,259658
07-03-2024,18.600000,19.200001,18.600000,18.750000,18.750000,93568
11-03-2024,18.950001,18.950001,17.900000,18.200001,18.200001,166822
12-03-2024,18.150000,18.250000,16.600000,16.850000,16.850000,278542
13-03-2024,16.600000,17.049999,15.200000,15.400000,15.400000,326514
14-03-2024,15.300000,16.150000,14.800000,15.750000,15.750000,323350
15-03-2024,15.900000,16.299999,15.550000,15.900000,15.900000,139280
18-03-2024,15.650000,16.299999,15.600000,15.950000,15.950000,101099
19-03-2024,15.650000,16.100000,15.150000,15.350000,15.350000,156688
20-03-2024,15.250000,15.650000,14.550000,14.900000,14.900000,175876
21-03-2024,15.000000,16.500000,14.950000,16.049999,16.049999,618976
22-03-2024,16.049999,16.150000,15.600000,15.750000,15.750000,155728
26-03-2024,16.000000,16.150000,15.400000,15.500000,15.500000,123171
27-03-2024,15.400000,15.750000,14.500000,14.800000,14.800000,307388
28-03-2024,15.000000,15.450000,14.550000,14.650000,14.650000,164925
01-04-2024,14.500000,16.200001,14.400000,16.100000,16.100000,220502
02-04-2024,16.049999,16.750000,15.800000,16.600000,16.600000,154019
03-04-2024,16.950001,17.600000,16.549999,17.299999,17.299999,301469
04-04-2024,17.950001,20.200001,17.100000,19.549999,19.549999,1437274
05-04-2024,19.549999,21.250000,18.799999,20.850000,20.850000,1624947
08-04-2024,21.549999,21.549999,19.600000,19.750000,19.750000,367879
09-04-2024,19.950001,20.900000,19.400000,19.500000,19.500000,248792
10-04-2024,19.549999,20.200001,19.200001,19.350000,19.350000,168929
12-04-2024,19.049999,19.900000,18.299999,18.900000,18.900000,238854
15-04-2024,17.799999,19.299999,17.299999,19.100000,19.100000,367991
16-04-2024,19.100000,21.000000,18.500000,21.000000,21.000000,1304407
18-04-2024,21.400000,23.100000,21.150000,22.150000,22.150000,1986566
19-04-2024,22.000000,22.250000,20.900000,22.100000,22.100000,346575
22-04-2024,23.049999,23.200001,21.600000,22.450001,22.450001,371283
23-04-2024,22.049999,22.900000,21.799999,22.049999,22.049999,245867
24-04-2024,22.000000,22.500000,21.900000,22.000000,22.000000,287056
25-04-2024,22.250000,22.250000,21.000000,21.350000,21.350000,173168
26-04-2024,21.350000,21.799999,21.350000,21.600000,21.600000,106113
29-04-2024,21.950001,21.950001,21.500000,21.700001,21.700001,117777
30-04-2024,22.000000,22.700001,21.650000,22.049999,22.049999,256537
02-05-2024,22.350000,23.250000,21.150000,22.900000,22.900000,800970
03-05-2024,22.950001,23.000000,22.400000,22.600000,22.600000,178059
06-05-2024,22.750000,22.850000,22.150000,22.450001,22.450001,193243
07-05-2024,23.000000,23.000000,21.799999,22.100000,22.100000,146988
08-05-2024,22.500000,22.700001,21.950001,22.049999,22.049999,86039
09-05-2024,22.200001,22.250000,20.150000,20.799999,20.799999,112511
10-05-2024,20.400000,20.850000,20.150000,20.600000,20.600000,42582
13-05-2024,20.600000,20.850000,19.600000,20.200001,20.200001,52836
14-05-2024,19.799999,22.049999,19.700001,21.549999,21.549999,173093
15-05-2024,21.750000,22.250000,21.000000,21.500000,21.500000,73362
16-05-2024,21.900000,21.900000,21.000000,21.049999,21.049999,55536
17-05-2024,20.600000,22.200001,20.600000,21.450001,21.450001,160020
21-05-2024,21.000000,22.000000,20.500000,21.250000,21.250000,167699
22-05-2024,21.400000,21.450001,20.700001,21.000000,21.000000,65009
23-05-2024,21.049999,21.350000,20.600000,20.700001,20.700001,44899
24-05-2024,20.950001,21.049999,20.299999,20.549999,20.549999,45103
27-05-2024,20.600000,20.900000,20.100000,20.250000,20.250000,58758
28-05-2024,20.000000,20.450001,19.850000,19.900000,19.900000,46062
29-05-2024,19.700001,21.100000,19.700001,20.700001,20.700001,109213
30-05-2024,20.950001,21.100000,19.650000,20.100000,20.100000,68494
31-05-2024,20.000000,20.299999,19.549999,19.700001,19.700001,64092
03-06-2024,19.750000,20.450001,19.650000,19.799999,19.799999,46103
04-06-2024,20.150000,20.150000,17.850000,18.350000,18.350000,220207
05-06-2024,18.350000,18.900000,17.500000,18.299999,18.299999,96204
06-06-2024,18.450001,19.850000,18.350000,19.549999,19.549999,83179
07-06-2024,19.900000,21.500000,19.400000,20.000000,20.000000,186798
10-06-2024,20.900000,20.900000,20.010000,20.209999,20.209999,53281
11-06-2024,20.379999,20.799999,19.870001,20.209999,20.209999,66456
12-06-2024,20.250000,20.500000,19.559999,19.969999,19.969999,82620
13-06-2024,20.280001,20.280001,19.850000,19.910000,19.910000,41243
14-06-2024,19.950001,20.900000,19.879999,20.020000,20.020000,186163
18-06-2024,20.049999,20.490000,19.500000,19.629999,19.629999,124568
19-06-2024,19.850000,19.850000,19.010000,19.180000,19.180000,76697
20-06-2024,19.379999,19.580000,19.000000,19.090000,19.090000,120780
21-06-2024,19.299999,19.530001,19.049999,19.459999,19.459999,77355
24-06-2024,19.650000,20.139999,19.400000,19.459999,19.459999,127706
25-06-2024,19.490000,19.900000,19.260000,19.320000,19.320000,89751
26-06-2024,19.299999,19.870001,19.000000,19.530001,19.530001,137472
27-06-2024,19.530001,19.639999,19.360001,19.570000,19.570000,88836
28-06-2024,19.790001,19.790001,19.170000,19.610001,19.610001,135717
01-07-2024,19.740000,20.750000,19.620001,20.500000,20.500000,204523
02-07-2024,20.510000,21.799999,20.020000,21.160000,21.160000,666799
03-07-2024,21.480000,21.790001,20.900000,20.930000,20.930000,147120
04-07-2024,20.799999,21.180000,20.150000,20.280001,20.280001,47598
05-07-2024,20.700001,21.799999,20.100000,21.020000,21.020000,168096
08-07-2024,21.440001,21.920000,20.500000,21.020000,21.020000,289215
09-07-2024,21.240000,21.990000,20.950001,20.969999,20.969999,160139
10-07-2024,21.230000,21.230000,20.299999,20.620001,20.620001,76323
11-07-2024,20.950001,20.950001,20.299999,20.340000,20.340000,61478
12-07-2024,20.250000,21.400000,20.250000,21.100000,21.100000,149216
15-07-2024,21.469999,21.469999,20.580000,20.730000,20.730000,62068
16-07-2024,20.969999,20.969999,20.120001,20.270000,20.270000,83161
18-07-2024,20.320000,21.250000,19.809999,20.469999,20.469999,199309
19-07-2024,20.670000,20.700001,19.809999,20.070000,20.070000,83057
22-07-2024,19.950001,20.070000,19.799999,19.840000,19.840000,36919
23-07-2024,19.850000,20.240000,19.000000,19.750000,19.750000,188638
24-07-2024,19.520000,21.719999,19.520000,21.600000,21.600000,602057
25-07-2024,21.500000,23.270000,21.049999,21.740000,21.740000,791043
26-07-2024,21.740000,22.190001,21.120001,21.250000,21.250000,112955
29-07-2024,21.059999,21.459999,20.610001,20.959999,20.959999,101884
30-07-2024,20.520000,21.650000,20.520000,21.129999,21.129999,72161
31-07-2024,21.000000,21.430000,20.700001,20.830000,20.830000,91101
01-08-2024,21.389999,21.389999,20.250000,20.459999,20.459999,86999
02-08-2024,20.500000,20.959999,19.860001,20.770000,20.770000,100794
05-08-2024,20.520000,20.520000,19.389999,19.850000,19.850000,187224
06-08-2024,20.250000,20.389999,19.110001,19.400000,19.400000,66892
07-08-2024,19.670000,21.450001,19.020000,20.299999,20.299999,310962
08-08-2024,20.049999,20.860001,20.000000,20.120001,20.120001,36935
09-08-2024,20.530001,22.780001,20.200001,21.830000,21.830000,923112
12-08-2024,21.990000,22.400000,21.230000,21.379999,21.379999,263170
13-08-2024,21.780001,21.780001,20.200001,20.309999,20.309999,96181
14-08-2024,20.370001,20.590000,19.809999,19.940001,19.940001,41942
16-08-2024,19.950001,20.440001,19.950001,20.110001,20.110001,42862
19-08-2024,20.340000,22.799999,19.840000,22.389999,22.389999,564336
20-08-2024,25.000000,25.350000,21.740000,23.530001,23.530001,3481112
21-08-2024,23.500000,24.840000,22.799999,23.040001,23.040001,896280
22-08-2024,23.370001,23.900000,22.510000,22.610001,22.610001,161195
23-08-2024,22.600000,23.490000,21.900000,22.250000,22.250000,367057
26-08-2024,22.700001,23.450001,22.100000,22.639999,22.639999,98490
27-08-2024,22.879999,22.879999,21.020000,21.530001,21.530001,221554
28-08-2024,21.680000,21.990000,20.820000,20.980000,20.980000,202537
29-08-2024,21.190001,21.799999,20.650000,20.730000,20.730000,139786
30-08-2024,20.930000,21.440001,20.059999,20.980000,20.980000,521817
02-09-2024,21.299999,22.740000,20.850000,22.139999,22.139999,637951
03-09-2024,22.540001,22.809999,22.000000,22.580000,22.580000,282024
04-09-2024,21.620001,22.480000,21.620001,22.010000,22.010000,91885
05-09-2024,22.000000,22.740000,21.850000,21.980000,21.980000,185383
06-09-2024,22.170000,22.490000,21.549999,21.969999,21.969999,269622
09-09-2024,21.959999,22.219999,21.520000,21.790001,21.790001,121701
10-09-2024,21.730000,22.290001,21.730000,21.950001,21.950001,64646
11-09-2024,21.950001,22.469999,21.950001,22.030001,22.030001,112487
12-09-2024,22.070000,22.299999,21.450001,21.559999,21.559999,85942
13-09-2024,21.879999,22.500000,21.600000,21.959999,21.959999,401079
16-09-2024,22.379999,22.400000,21.809999,21.830000,21.830000,85258
17-09-2024,21.500000,22.000000,21.500000,21.780001,21.780001,58868
18-09-2024,21.959999,21.959999,20.799999,21.150000,21.150000,179999
19-09-2024,21.430000,21.440001,20.450001,20.530001,20.530001,138484
20-09-2024,20.990000,21.400000,20.680000,21.090000,21.090000,123072
23-09-2024,21.100000,21.100000,20.850000,20.910000,20.910000,50349
24-09-2024,20.959999,21.450001,20.650000,20.870001,20.870001,81450
25-09-2024,20.980000,20.990000,19.969999,20.020000,20.020000,267600
26-09-2024,20.280001,20.490000,19.990000,20.190001,20.190001,111644
27-09-2024,20.639999,20.639999,20.020000,20.160000,20.160000,64691
30-09-2024,20.160000,20.600000,20.000000,20.150000,20.150000,159350
01-10-2024,20.280001,21.000000,20.049999,20.709999,20.709999,200887
03-10-2024,20.980000,20.980000,20.110001,20.190001,20.190001,85454
04-10-2024,20.190001,20.490000,19.450001,19.610001,19.610001,139100
07-10-2024,19.870001,19.870001,18.610001,18.770000,18.770000,107194
08-10-2024,19.000000,19.680000,18.690001,19.280001,19.280001,68949
09-10-2024,19.660000,20.660000,19.309999,20.280001,20.280001,167954
10-10-2024,20.440001,20.889999,20.150000,20.309999,20.309999,125314
11-10-2024,20.440001,20.590000,19.820000,19.920000,19.920000,61127
14-10-2024,20.250000,20.250000,19.650000,19.879999,19.879999,83934
15-10-2024,19.549999,20.000000,19.520000,19.580000,19.580000,40402
16-10-2024,19.750000,19.750000,19.000000,19.270000,19.270000,79476
17-10-2024,19.270000,19.469999,18.799999,18.940001,18.940001,71043
18-10-2024,18.820000,19.190001,18.650000,19.059999,19.059999,42771
21-10-2024,19.440001,19.440001,18.700001,18.719999,18.719999,23218
22-10-2024,18.750000,18.910000,18.010000,18.049999,18.049999,31415
23-10-2024,18.000000,18.389999,17.219999,17.520000,17.520000,145645
24-10-2024,17.330000,17.980000,17.120001,17.840000,17.840000,76989
25-10-2024,17.840000,17.850000,17.250000,17.400000,17.400000,49865
28-10-2024,17.100000,17.870001,17.100000,17.230000,17.230000,51233
29-10-2024,17.790001,17.790001,16.910000,17.090000,17.090000,62044
30-10-2024,17.450001,17.950001,17.090000,17.709999,17.709999,50401
31-10-2024,17.410000,18.500000,17.410000,17.959999,17.959999,68500
01-11-2024,18.480000,18.770000,18.020000,18.620001,18.620001,27538
04-11-2024,19.049999,20.100000,18.889999,19.209999,19.209999,143263
05-11-2024,19.260000,19.959999,19.260000,19.379999,19.379999,76329
06-11-2024,19.400000,19.690001,18.860001,19.469999,19.469999,46019
07-11-2024,19.480000,19.510000,18.920000,19.090000,19.090000,25913
08-11-2024,19.190001,19.190001,18.600000,18.770000,18.770000,35145
11-11-2024,19.150000,19.299999,18.900000,19.080000,19.080000,28894
12-11-2024,19.240000,19.240000,18.000000,18.230000,18.230000,37599
13-11-2024,18.219999,18.219999,17.110001,17.230000,17.230000,57046
14-11-2024,17.580000,17.719999,17.299999,17.580000,17.580000,23935
18-11-2024,17.580000,17.700001,16.620001,16.920000,16.920000,49551
19-11-2024,17.230000,17.639999,16.770000,16.959999,16.959999,74298
21-11-2024,16.799999,17.120001,16.200001,16.330000,16.330000,54297
22-11-2024,16.600000,16.840000,16.370001,16.709999,16.709999,24507
25-11-2024,16.990000,17.549999,16.990000,17.150000,17.150000,67404
26-11-2024,17.490000,17.549999,16.200001,17.150000,17.150000,39957
