$NAME RAMANEWS.NS
2024-01-29, 18.850000381469726, 19.350000381469726, 18.350000381469726, 18.549999237060547, 473863
2024-01-30, 18.799999237060547, 19.899999618530273, 18.100000381469726, 19.299999237060547, 881136
2024-01-31, 19.299999237060547, 19.799999237060547, 18.850000381469726, 18.950000762939453, 461047
2024-02-01, 19.25, 19.399999618530273, 18.5, 18.649999618530273, 328657
2024-02-02, 18.850000381469726, 19.200000762939453, 18.399999618530273, 18.5, 312814
2024-02-05, 18.700000762939453, 19.350000381469726, 18, 18.149999618530273, 255041
2024-02-06, 18.450000762939453, 21.75, 18, 21.75, 4434228
2024-02-07, 21.899999618530273, 24.350000381469726, 20.5, 23.049999237060547, 6061557
2024-02-08, 23.700000762939453, 23.899999618530273, 22.399999618530273, 23.350000381469726, 1453883
2024-02-09, 24, 24, 21, 21.950000762939453, 1023722
2024-02-12, 22, 22.399999618530273, 19.299999237060547, 19.649999618530273, 702268
2024-02-13, 19.049999237060547, 20.149999618530273, 18.700000762939453, 19.25, 471798
2024-02-14, 18.850000381469726, 20.399999618530273, 18.850000381469726, 20.25, 410323
2024-02-15, 20.850000381469726, 21.200000762939453, 20.450000762939453, 20.700000762939453, 326424
2024-02-16, 21.049999237060547, 21.700000762939453, 20.850000381469726, 21.25, 374675
2024-02-19, 21.649999618530273, 21.649999618530273, 20.600000381469726, 20.700000762939453, 221074
2024-02-20, 20.700000762939453, 21.149999618530273, 20, 20.149999618530273, 259170
2024-02-21, 20.25, 21, 19.450000762939453, 19.700000762939453, 426046
2024-02-22, 19.899999618530273, 20.850000381469726, 19.200000762939453, 20.350000381469726, 471362
2024-02-23, 20.5, 20.700000762939453, 19.799999237060547, 19.899999618530273, 205478
2024-02-26, 20, 20.100000381469726, 19, 19.200000762939453, 349526
2024-02-27, 19.350000381469726, 19.950000762939453, 18.549999237060547, 18.899999618530273, 351210
2024-02-28, 19, 19.299999237060547, 17.899999618530273, 18.299999237060547, 353315
2024-02-29, 18.299999237060547, 18.5, 17.950000762939453, 18.350000381469726, 104803
2024-03-01, 18.549999237060547, 19.350000381469726, 18.299999237060547, 19.149999618530273, 375337
2024-03-04, 19.299999237060547, 20.5, 18.600000381469726, 19.600000381469726, 1032288
2024-03-05, 19.600000381469726, 20.700000762939453, 19.149999618530273, 19.399999618530273, 430469
2024-03-06, 19.5, 19.600000381469726, 18.350000381469726, 18.850000381469726, 259658
2024-03-07, 18.600000381469726, 19.200000762939453, 18.600000381469726, 18.75, 93568
2024-03-11, 18.950000762939453, 18.950000762939453, 17.899999618530273, 18.200000762939453, 166822
2024-03-12, 18.149999618530273, 18.25, 16.600000381469726, 16.850000381469726, 278542
2024-03-13, 16.600000381469726, 17.049999237060547, 15.199999809265136, 15.399999618530273, 326514
2024-03-14, 15.300000190734863, 16.149999618530273, 14.800000190734863, 15.75, 323350
2024-03-15, 15.899999618530273, 16.299999237060547, 15.550000190734863, 15.899999618530273, 139280
2024-03-18, 15.649999618530273, 16.299999237060547, 15.600000381469726, 15.949999809265136, 101099
2024-03-19, 15.649999618530273, 16.100000381469726, 15.149999618530273, 15.350000381469726, 156688
2024-03-20, 15.25, 15.649999618530273, 14.550000190734863, 14.899999618530273, 175876
2024-03-21, 15, 16.5, 14.949999809265136, 16.049999237060547, 618976
2024-03-22, 16.049999237060547, 16.149999618530273, 15.600000381469726, 15.75, 155728
2024-03-26, 16, 16.149999618530273, 15.399999618530273, 15.5, 123171
2024-03-27, 15.399999618530273, 15.75, 14.5, 14.800000190734863, 307388
2024-03-28, 15, 15.449999809265136, 14.550000190734863, 14.649999618530273, 164925
2024-04-01, 14.5, 16.200000762939453, 14.399999618530273, 16.100000381469726, 220502
2024-04-02, 16.049999237060547, 16.75, 15.800000190734863, 16.600000381469726, 154019
2024-04-03, 16.950000762939453, 17.600000381469726, 16.549999237060547, 17.299999237060547, 301469
2024-04-04, 17.950000762939453, 20.200000762939453, 17.100000381469726, 19.549999237060547, 1437274
2024-04-05, 19.549999237060547, 21.25, 18.799999237060547, 20.850000381469726, 1624947
2024-04-08, 21.549999237060547, 21.549999237060547, 19.600000381469726, 19.75, 367879
2024-04-09, 19.950000762939453, 20.899999618530273, 19.399999618530273, 19.5, 248792
2024-04-10, 19.549999237060547, 20.200000762939453, 19.200000762939453, 19.350000381469726, 168929
2024-04-12, 19.049999237060547, 19.899999618530273, 18.299999237060547, 18.899999618530273, 238854
2024-04-15, 17.799999237060547, 19.299999237060547, 17.299999237060547, 19.100000381469726, 367991
2024-04-16, 19.100000381469726, 21, 18.5, 21, 1304407
2024-04-18, 21.399999618530273, 23.100000381469726, 21.149999618530273, 22.149999618530273, 1986566
2024-04-19, 22, 22.25, 20.899999618530273, 22.100000381469726, 346575
2024-04-22, 23.049999237060547, 23.200000762939453, 21.600000381469726, 22.450000762939453, 371283
2024-04-23, 22.049999237060547, 22.899999618530273, 21.799999237060547, 22.049999237060547, 245867
2024-04-24, 22, 22.5, 21.899999618530273, 22, 287056
2024-04-25, 22.25, 22.25, 21, 21.350000381469726, 173168
2024-04-26, 21.350000381469726, 21.799999237060547, 21.350000381469726, 21.600000381469726, 106113
2024-04-29, 21.950000762939453, 21.950000762939453, 21.5, 21.700000762939453, 117777
2024-04-30, 22, 22.700000762939453, 21.649999618530273, 22.049999237060547, 256537
2024-05-02, 22.350000381469726, 23.25, 21.149999618530273, 22.899999618530273, 800970
2024-05-03, 22.950000762939453, 23, 22.399999618530273, 22.600000381469726, 178059
2024-05-06, 22.75, 22.850000381469726, 22.149999618530273, 22.450000762939453, 193243
2024-05-07, 23, 23, 21.799999237060547, 22.100000381469726, 146988
2024-05-08, 22.5, 22.700000762939453, 21.950000762939453, 22.049999237060547, 86039
2024-05-09, 22.200000762939453, 22.25, 20.149999618530273, 20.799999237060547, 112511
2024-05-10, 20.399999618530273, 20.850000381469726, 20.149999618530273, 20.600000381469726, 42582
2024-05-13, 20.600000381469726, 20.850000381469726, 19.600000381469726, 20.200000762939453, 52836
2024-05-14, 19.799999237060547, 22.049999237060547, 19.700000762939453, 21.549999237060547, 173093
2024-05-15, 21.75, 22.25, 21, 21.5, 73362
2024-05-16, 21.899999618530273, 21.899999618530273, 21, 21.049999237060547, 55536
2024-05-17, 20.600000381469726, 22.200000762939453, 20.600000381469726, 21.450000762939453, 160020
2024-05-21, 21, 22, 20.5, 21.25, 167699
2024-05-22, 21.399999618530273, 21.450000762939453, 20.700000762939453, 21, 65009
2024-05-23, 21.049999237060547, 21.350000381469726, 20.600000381469726, 20.700000762939453, 44899
2024-05-24, 20.950000762939453, 21.049999237060547, 20.299999237060547, 20.549999237060547, 45103
2024-05-27, 20.600000381469726, 20.899999618530273, 20.100000381469726, 20.25, 58758
2024-05-28, 20, 20.450000762939453, 19.850000381469726, 19.899999618530273, 46062
2024-05-29, 19.700000762939453, 21.100000381469726, 19.700000762939453, 20.700000762939453, 109213
2024-05-30, 20.950000762939453, 21.100000381469726, 19.649999618530273, 20.100000381469726, 68494
2024-05-31, 20, 20.299999237060547, 19.549999237060547, 19.700000762939453, 64092
2024-06-03, 19.75, 20.450000762939453, 19.649999618530273, 19.799999237060547, 46103
2024-06-04, 20.149999618530273, 20.149999618530273, 17.850000381469726, 18.350000381469726, 220207
2024-06-05, 18.350000381469726, 18.899999618530273, 17.5, 18.299999237060547, 96204
2024-06-06, 18.450000762939453, 19.850000381469726, 18.350000381469726, 19.549999237060547, 83179
2024-06-07, 19.899999618530273, 21.5, 19.399999618530273, 20, 186798
2024-06-10, 20.899999618530273, 20.899999618530273, 20.010000228881836, 20.209999084472656, 53281
2024-06-11, 20.3799991607666, 20.799999237060547, 19.8700008392334, 20.209999084472656, 66456
2024-06-12, 20.25, 20.5, 19.559999465942383, 19.969999313354492, 82620
2024-06-13, 20.280000686645508, 20.280000686645508, 19.850000381469726, 19.90999984741211, 41243
2024-06-14, 19.950000762939453, 20.899999618530273, 19.8799991607666, 20.020000457763672, 186163
2024-06-18, 20.049999237060547, 20.489999771118164, 19.5, 19.6299991607666, 124568
2024-06-19, 19.850000381469726, 19.850000381469726, 19.010000228881836, 19.18000030517578, 76697
2024-06-20, 19.3799991607666, 19.579999923706054, 19, 19.09000015258789, 120780
2024-06-21, 19.299999237060547, 19.530000686645508, 19.049999237060547, 19.459999084472656, 77355
2024-06-24, 19.649999618530273, 20.139999389648437, 19.399999618530273, 19.459999084472656, 127706
2024-06-25, 19.489999771118164, 19.899999618530273, 19.260000228881836, 19.31999969482422, 89751
2024-06-26, 19.299999237060547, 19.8700008392334, 19, 19.530000686645508, 137472
2024-06-27, 19.530000686645508, 19.639999389648437, 19.360000610351562, 19.56999969482422, 88836
2024-06-28, 19.790000915527343, 19.790000915527343, 19.170000076293945, 19.610000610351562, 135717
2024-07-01, 19.739999771118164, 20.75, 19.6200008392334, 20.5, 204523
2024-07-02, 20.510000228881836, 21.799999237060547, 20.020000457763672, 21.15999984741211, 666799
2024-07-03, 21.479999542236328, 21.790000915527343, 20.899999618530273, 20.93000030517578, 147120
2024-07-04, 20.799999237060547, 21.18000030517578, 20.149999618530273, 20.280000686645508, 47598
2024-07-05, 20.700000762939453, 21.799999237060547, 20.100000381469726, 21.020000457763672, 168096
2024-07-08, 21.440000534057617, 21.920000076293945, 20.5, 21.020000457763672, 289215
2024-07-09, 21.239999771118164, 21.989999771118164, 20.950000762939453, 20.969999313354492, 160139
2024-07-10, 21.229999542236328, 21.229999542236328, 20.299999237060547, 20.6200008392334, 76323
2024-07-11, 20.950000762939453, 20.950000762939453, 20.299999237060547, 20.34000015258789, 61478
2024-07-12, 20.25, 21.399999618530273, 20.25, 21.100000381469726, 149216
2024-07-15, 21.469999313354492, 21.469999313354492, 20.579999923706054, 20.729999542236328, 62068
2024-07-16, 20.969999313354492, 20.969999313354492, 20.1200008392334, 20.270000457763672, 83161
2024-07-18, 20.31999969482422, 21.25, 19.809999465942383, 20.469999313354492, 199309
2024-07-19, 20.670000076293945, 20.700000762939453, 19.809999465942383, 20.06999969482422, 83057
2024-07-22, 19.950000762939453, 20.06999969482422, 19.799999237060547, 19.84000015258789, 36919
2024-07-23, 19.850000381469726, 20.239999771118164, 19, 19.75, 188638
2024-07-24, 19.520000457763672, 21.719999313354492, 19.520000457763672, 21.600000381469726, 602057
2024-07-25, 21.5, 23.270000457763672, 21.049999237060547, 21.739999771118164, 791043
2024-07-26, 21.739999771118164, 22.190000534057617, 21.1200008392334, 21.25, 112955
2024-07-29, 21.059999465942383, 21.459999084472656, 20.610000610351562, 20.959999084472656, 101884
2024-07-30, 20.520000457763672, 21.649999618530273, 20.520000457763672, 21.1299991607666, 72161
2024-07-31, 21, 21.43000030517578, 20.700000762939453, 20.829999923706054, 91101
2024-08-01, 21.389999389648437, 21.389999389648437, 20.25, 20.459999084472656, 86999
2024-08-02, 20.5, 20.959999084472656, 19.860000610351562, 20.770000457763672, 100794
2024-08-05, 20.520000457763672, 20.520000457763672, 19.389999389648437, 19.850000381469726, 187224
2024-08-06, 20.25, 20.389999389648437, 19.110000610351562, 19.399999618530273, 66892
2024-08-07, 19.670000076293945, 21.450000762939453, 19.020000457763672, 20.299999237060547, 310962
2024-08-08, 20.049999237060547, 20.860000610351562, 20, 20.1200008392334, 36935
2024-08-09, 20.530000686645508, 22.780000686645508, 20.200000762939453, 21.829999923706054, 923112
2024-08-12, 21.989999771118164, 22.399999618530273, 21.229999542236328, 21.3799991607666, 263170
2024-08-13, 21.780000686645508, 21.780000686645508, 20.200000762939453, 20.309999465942383, 96181
2024-08-14, 20.3700008392334, 20.59000015258789, 19.809999465942383, 19.940000534057617, 41942
2024-08-16, 19.950000762939453, 20.440000534057617, 19.950000762939453, 20.110000610351562, 42862
2024-08-19, 20.34000015258789, 22.799999237060547, 19.84000015258789, 22.389999389648437, 564336
2024-08-20, 25, 25.350000381469726, 21.739999771118164, 23.530000686645508, 3481112
2024-08-21, 23.5, 24.84000015258789, 22.799999237060547, 23.040000915527343, 896280
2024-08-22, 23.3700008392334, 23.899999618530273, 22.510000228881836, 22.610000610351562, 161195
2024-08-23, 22.600000381469726, 23.489999771118164, 21.899999618530273, 22.25, 367057
2024-08-26, 22.700000762939453, 23.450000762939453, 22.100000381469726, 22.639999389648437, 98490
2024-08-27, 22.8799991607666, 22.8799991607666, 21.020000457763672, 21.530000686645508, 221554
2024-08-28, 21.68000030517578, 21.989999771118164, 20.81999969482422, 20.979999542236328, 202537
2024-08-29, 21.190000534057617, 21.799999237060547, 20.649999618530273, 20.729999542236328, 139786
2024-08-30, 20.93000030517578, 21.440000534057617, 20.059999465942383, 20.979999542236328, 521817
2024-09-02, 21.299999237060547, 22.739999771118164, 20.850000381469726, 22.139999389648437, 637951
2024-09-03, 22.540000915527343, 22.809999465942383, 22, 22.579999923706054, 282024
2024-09-04, 21.6200008392334, 22.479999542236328, 21.6200008392334, 22.010000228881836, 91885
2024-09-05, 22, 22.739999771118164, 21.850000381469726, 21.979999542236328, 185383
2024-09-06, 22.170000076293945, 22.489999771118164, 21.549999237060547, 21.969999313354492, 269622
2024-09-09, 21.959999084472656, 22.219999313354492, 21.520000457763672, 21.790000915527343, 121701
2024-09-10, 21.729999542236328, 22.290000915527343, 21.729999542236328, 21.950000762939453, 64646
2024-09-11, 21.950000762939453, 22.469999313354492, 21.950000762939453, 22.030000686645508, 112487
2024-09-12, 22.06999969482422, 22.299999237060547, 21.450000762939453, 21.559999465942383, 85942
2024-09-13, 21.8799991607666, 22.5, 21.600000381469726, 21.959999084472656, 401079
2024-09-16, 22.3799991607666, 22.399999618530273, 21.809999465942383, 21.829999923706054, 85258
2024-09-17, 21.5, 22, 21.5, 21.780000686645508, 58868
2024-09-18, 21.959999084472656, 21.959999084472656, 20.799999237060547, 21.149999618530273, 179999
2024-09-19, 21.43000030517578, 21.440000534057617, 20.450000762939453, 20.530000686645508, 138484
2024-09-20, 20.989999771118164, 21.399999618530273, 20.68000030517578, 21.09000015258789, 123072
2024-09-23, 21.100000381469726, 21.100000381469726, 20.850000381469726, 20.90999984741211, 50349
2024-09-24, 20.959999084472656, 21.450000762939453, 20.649999618530273, 20.8700008392334, 81450
2024-09-25, 20.979999542236328, 20.989999771118164, 19.969999313354492, 20.020000457763672, 267600
2024-09-26, 20.280000686645508, 20.489999771118164, 19.989999771118164, 20.190000534057617, 111644
2024-09-27, 20.639999389648437, 20.639999389648437, 20.020000457763672, 20.15999984741211, 64691
2024-09-30, 20.15999984741211, 20.600000381469726, 20, 20.149999618530273, 159350
2024-10-01, 20.280000686645508, 21, 20.049999237060547, 20.709999084472656, 200887
2024-10-03, 20.979999542236328, 20.979999542236328, 20.110000610351562, 20.190000534057617, 85454
2024-10-04, 20.190000534057617, 20.489999771118164, 19.450000762939453, 19.610000610351562, 139100
2024-10-07, 19.8700008392334, 19.8700008392334, 18.610000610351562, 18.770000457763672, 107194
2024-10-08, 19, 19.68000030517578, 18.690000534057617, 19.280000686645508, 68949
2024-10-09, 19.65999984741211, 20.65999984741211, 19.309999465942383, 20.280000686645508, 167954
2024-10-10, 20.440000534057617, 20.889999389648437, 20.149999618530273, 20.309999465942383, 125314
2024-10-11, 20.440000534057617, 20.59000015258789, 19.81999969482422, 19.920000076293945, 61127
2024-10-14, 20.25, 20.25, 19.649999618530273, 19.8799991607666, 83934
2024-10-15, 19.549999237060547, 20, 19.520000457763672, 19.579999923706054, 40402
2024-10-16, 19.75, 19.75, 19, 19.270000457763672, 79476
2024-10-17, 19.270000457763672, 19.469999313354492, 18.799999237060547, 18.940000534057617, 71043
2024-10-18, 18.81999969482422, 19.190000534057617, 18.649999618530273, 19.059999465942383, 42771
2024-10-21, 19.440000534057617, 19.440000534057617, 18.700000762939453, 18.719999313354492, 23218
2024-10-22, 18.75, 18.90999984741211, 18.010000228881836, 18.049999237060547, 31415
2024-10-23, 18, 18.389999389648437, 17.219999313354492, 17.520000457763672, 145645
2024-10-24, 17.329999923706054, 17.979999542236328, 17.1200008392334, 17.84000015258789, 76989
2024-10-25, 17.84000015258789, 17.850000381469726, 17.25, 17.399999618530273, 49865
2024-10-28, 17.100000381469726, 17.8700008392334, 17.100000381469726, 17.229999542236328, 51233
2024-10-29, 17.790000915527343, 17.790000915527343, 16.90999984741211, 17.09000015258789, 62044
2024-10-30, 17.450000762939453, 17.950000762939453, 17.09000015258789, 17.709999084472656, 50401
2024-10-31, 17.40999984741211, 18.5, 17.40999984741211, 17.959999084472656, 68500
2024-11-01, 18.479999542236328, 18.770000457763672, 18.020000457763672, 18.6200008392334, 27538
2024-11-04, 19.049999237060547, 20.100000381469726, 18.889999389648437, 19.209999084472656, 143263
2024-11-05, 19.260000228881836, 19.959999084472656, 19.260000228881836, 19.3799991607666, 76329
2024-11-06, 19.399999618530273, 19.690000534057617, 18.860000610351562, 19.469999313354492, 46019
2024-11-07, 19.479999542236328, 19.510000228881836, 18.920000076293945, 19.09000015258789, 25913
2024-11-08, 19.190000534057617, 19.190000534057617, 18.600000381469726, 18.770000457763672, 35145
2024-11-11, 19.149999618530273, 19.299999237060547, 18.899999618530273, 19.079999923706054, 28894
2024-11-12, 19.239999771118164, 19.239999771118164, 18, 18.229999542236328, 37599
2024-11-13, 18.219999313354492, 18.219999313354492, 17.110000610351562, 17.229999542236328, 57046
2024-11-14, 17.579999923706054, 17.719999313354492, 17.299999237060547, 17.579999923706054, 23935
2024-11-18, 17.579999923706054, 17.700000762939453, 16.6200008392334, 16.920000076293945, 49551
2024-11-19, 17.229999542236328, 17.639999389648437, 16.770000457763672, 16.959999084472656, 74298
2024-11-21, 16.799999237060547, 17.1200008392334, 16.200000762939453, 16.329999923706054, 54297
2024-11-22, 16.600000381469726, 16.84000015258789, 16.3700008392334, 16.709999084472656, 24507
2024-11-25, 16.989999771118164, 17.549999237060547, 16.989999771118164, 17.149999618530273, 67404
2024-11-26, 17.489999771118164, 17.549999237060547, 16.200000762939453, 17.149999618530273, 39957
2024-11-27, 17.440000534057617, 17.59000015258789, 17.15999984741211, 17.329999923706054, 23814
2024-11-28, 17.690000534057617, 18.100000381469726, 17.309999465942383, 17.719999313354492, 55293
2024-11-29, 17.979999542236328, 18.399999618530273, 17.65999984741211, 17.889999389648437, 22201
2024-12-02, 18.299999237060547, 19.34000015258789, 18.010000228881836, 18.860000610351562, 169219
2024-12-03, 18.959999084472656, 19.209999084472656, 18.709999084472656, 18.989999771118164, 68582
2024-12-04, 18.639999389648437, 20, 18.610000610351562, 19, 84265
2024-12-05, 19, 19.549999237060547, 18.700000762939453, 19.34000015258789, 43020
2024-12-06, 19.489999771118164, 19.600000381469726, 18.950000762939453, 19.149999618530273, 65135
2024-12-09, 19.149999618530273, 20.75, 19.149999618530273, 19.700000762939453, 265881
2024-12-10, 19.889999389648437, 19.93000030517578, 19.299999237060547, 19.559999465942383, 51141
2024-12-11, 19.700000762939453, 19.739999771118164, 19.25, 19.299999237060547, 36732
2024-12-12, 19.5, 19.5, 19.06999969482422, 19.209999084472656, 86996
2024-12-13, 19.209999084472656, 19.479999542236328, 18.739999771118164, 19, 44201
2024-12-16, 18.829999923706054, 20.1299991607666, 18.829999923706054, 19.559999465942383, 145246
2024-12-17, 19, 19.639999389648437, 18.760000228881836, 18.950000762939453, 55572
2024-12-18, 18.700000762939453, 19.43000030517578, 18.600000381469726, 18.68000030517578, 36704
2024-12-19, 18.68000030517578, 19.030000686645508, 18.459999084472656, 18.809999465942383, 87725
2024-12-20, 18.989999771118164, 19.100000381469726, 18.709999084472656, 18.75, 78285
2024-12-23, 18.75, 18.93000030517578, 18.100000381469726, 18.15999984741211, 51379
2024-12-24, 18.049999237060547, 18.299999237060547, 17.309999465942383, 17.969999313354492, 53752
2024-12-26, 17.520000457763672, 18.079999923706054, 17.520000457763672, 17.780000686645508, 24032
2024-12-27, 17.549999237060547, 17.989999771118164, 17.549999237060547, 17.829999923706054, 26303
2024-12-30, 17.530000686645508, 17.920000076293945, 17.530000686645508, 17.6299991607666, 28077
2024-12-31, 17.360000610351562, 18.969999313354492, 17.350000381469726, 18.18000030517578, 10838
2025-01-01, 18.200000762939453, 18.790000915527343, 18.110000610351562, 18.18000030517578, 79880
2025-01-02, 18.479999542236328, 18.68000030517578, 18.18000030517578, 18.520000457763672, 22543
2025-01-03, 18.440000534057617, 18.989999771118164, 18.170000076293945, 18.299999237060547, 37626
2025-01-06, 18.170000076293945, 18.389999389648437, 17.3799991607666, 17.440000534057617, 42507
2025-01-07, 17.56999969482422, 18.149999618530273, 17.56999969482422, 18.010000228881836, 36407
2025-01-08, 18.299999237060547, 18.299999237060547, 18, 18.010000228881836, 28787
2025-01-09, 18.030000686645508, 18.540000915527343, 17.5, 18.059999465942383, 40184
2025-01-10, 18.489999771118164, 18.489999771118164, 17, 17.200000762939453, 68615
2025-01-13, 17, 17.600000381469726, 16.25, 16.889999389648437, 145736
2025-01-14, 17.079999923706054, 17.280000686645508, 16.709999084472656, 17.010000228881836, 37031
